Raman Shift (cm-1),E10_a,E50_a,EM2_b,Ethanol,EM3_a,EM6_b,EM4_a,EM3_b,EM1_b,E70_a,Methanol,EM1_a,E40_a,EM2_a,E80_a,E30_a,EM8_b,E5_a,E90_a,EM6_a,EM9_a,EM4_b,EM9_b,EM5_a,EMX,EMX_b
500.4,-9.758,28.075,29.322,37.08,65.622,17.456,66.767,-27.378,34.322,7.375,-69.06,42.222,8.775,96.056,36.858,45.675,23.022,19.942,12.442,65.6,114.5,-9.578,4.089,55.2,122.567,16.189
513.9,16.908,39.742,-17.017,28.425,75.778,-26.883,30.411,-21.317,-15.617,26.075,-58.902,57.911,26.975,63.711,42.471,53.842,9.017,55.742,51.875,53.911,85.078,-17.417,5.55,26.644,121.811,5.883
527.3,10.742,15.075,16.033,65.315,73.444,-13.533,27.789,0.033,-4.233,23.508,-70.53,69.378,-14.058,92.144,51.961,21.675,4.567,-22.425,10.842,37.656,133.956,-19.7,-10.1,20.089,171.889,6.867
540.7,-4.767,-7.167,30.106,59.633,127.533,9.706,50.267,-16.828,-27.561,19.667,-77.219,63.6,29.467,87.3,47.613,31.3,11.206,22.7,-1.067,99.233,128.9,8.106,7.406,127.5,157.167,-33.461
554.1,5.567,40.5,3.667,28.103,59.9,-15.0,38.111,31.267,10.733,18.933,-41.869,19.6,17.9,66.867,50.337,18.733,30.4,10.5,2.0,44.944,65.978,30.4,4.767,32.578,109.278,38.367
567.5,-16.525,7.275,11.172,33.258,112.711,-26.328,75.289,27.039,-4.428,34.008,-38.416,28.278,5.775,87.311,50.574,17.208,-9.928,10.175,17.708,130.222,159.656,-1.261,32.672,119.622,184.389,14.472
580.8,27.708,24.608,28.95,66.942,179.333,0.95,109.489,35.617,4.55,14.908,-55.621,78.367,35.142,184.633,42.584,37.308,41.417,25.942,22.175,159.589,258.356,37.683,29.917,132.389,325.056,77.017
594.1,42.425,38.625,79.439,101.633,266.867,159.272,200.611,137.539,61.072,31.158,-23.813,172.133,38.258,256.4,62.632,27.358,170.672,18.525,25.858,292.711,372.611,94.706,162.772,252.044,501.511,336.239
607.4,43.308,9.242,264.011,201.85,569.144,327.078,467.444,312.744,151.144,35.342,37.586,399.978,75.042,641.978,43.141,16.542,435.244,32.175,-64.625,679.078,799.011,269.644,396.678,559.511,1066.478,798.578
620.7,36.833,16.633,482.872,361.578,875.511,577.906,789.478,515.572,279.606,43.633,157.631,593.544,111.533,917.611,50.517,-39.6,802.972,27.3,23.0,1029.944,1121.578,525.472,611.872,840.878,1493.144,1355.339
633.9,36.167,72.733,695.361,617.607,1187.7,700.528,1010.633,727.994,493.594,164.933,182.433,818.7,205.0,1269.967,56.097,23.633,948.728,42.133,270.867,1269.0,1314.333,717.028,720.161,1066.9,1885.0,1681.428
647.1,66.667,271.733,953.861,1047.175,1565.011,900.194,1338.178,1029.361,852.228,374.533,233.736,1262.744,374.2,1753.878,94.657,101.767,1044.361,24.367,720.067,1451.311,1309.778,938.128,798.428,1334.944,2185.978,1953.028
660.3,51.425,312.592,1052.828,1145.492,1598.244,950.061,1377.033,1147.061,874.161,410.192,252.545,1270.444,424.325,1774.144,106.046,143.625,1098.961,48.592,811.725,1557.067,1404.533,1007.328,897.028,1359.833,2271.433,2099.861
673.4,76.758,174.658,855.556,860.37,1381.1,851.889,1188.1,1003.956,602.356,268.258,213.976,985.833,288.925,1483.767,67.459,67.258,1112.556,36.458,410.492,1484.8,1534.733,875.422,867.422,1218.0,2192.533,1969.322
686.6,13.442,43.042,726.261,597.11,1156.944,791.528,1094.311,787.861,389.194,110.542,254.886,757.578,197.475,1303.611,61.684,30.608,1081.528,32.108,132.608,1404.078,1537.411,750.028,855.494,1171.211,2114.078,1994.161
699.7,28.058,-23.108,673.606,493.898,1139.2,779.739,1008.133,809.306,402.406,96.092,224.584,712.2,126.925,1217.567,45.589,23.058,1156.972,5.292,39.025,1364.667,1521.467,725.572,906.306,1126.133,2305.233,2140.906
712.8,13.4,-5.2,651.9,415.95,1057.9,798.8,965.222,760.0,318.0,52.8,267.572,670.7,121.6,1157.3,40.127,-4.767,1095.8,12.6,51.3,1300.822,1483.256,704.133,891.833,1065.722,2214.189,2142.967
725.9,18.317,-27.583,573.256,410.203,1061.633,765.522,955.556,705.989,295.989,35.983,253.31,651.533,133.717,1190.5,41.735,-18.083,1081.356,-11.25,-55.383,1360.122,1530.822,692.222,870.256,1099.589,2067.456,1989.922
738.9,11.975,-70.492,515.733,397.31,1050.889,745.533,958.033,617.833,212.767,61.775,272.067,655.456,66.142,1138.422,32.894,-65.925,1089.167,16.675,-99.992,1270.267,1501.733,670.267,846.2,1067.967,1978.667,1906.4
751.9,-12.092,-88.792,553.65,356.353,937.467,767.483,949.489,653.417,188.317,14.142,281.199,575.067,-5.892,1098.5,28.717,-55.425,1099.917,11.342,-116.458,1321.922,1499.422,642.517,839.983,1000.856,1916.922,1907.183
764.9,-65.625,-98.758,519.272,349.177,960.767,787.406,912.456,673.006,202.672,3.608,251.548,558.6,79.275,1089.433,53.511,-49.358,1077.239,23.908,-146.325,1299.456,1517.556,637.239,827.006,1073.856,1958.489,1948.939
777.9,16.825,-79.475,506.133,330.587,942.667,761.167,899.044,628.0,196.0,-28.142,281.541,536.1,69.892,1046.9,26.876,-96.908,1083.867,-6.508,-157.908,1288.578,1574.611,643.433,868.867,1017.978,1872.878,1912.267
790.8,-11.183,-109.917,516.294,337.55,990.378,778.928,914.211,642.861,194.761,-17.917,297.389,544.011,51.25,1072.578,36.858,-80.65,1048.928,57.517,-173.117,1321.478,1556.344,596.961,898.461,1028.878,1925.311,1931.661
803.8,-28.033,-95.067,505.378,330.841,952.889,707.611,930.711,643.411,175.144,37.2,303.372,543.622,85.833,1057.856,25.8,-97.467,1119.444,32.9,-165.967,1316.778,1563.011,571.611,835.111,989.578,1888.844,1931.578
816.7,-11.183,-82.617,550.178,331.071,936.656,749.578,863.778,629.144,200.878,3.85,306.886,535.889,46.583,1024.322,43.425,-76.383,1070.611,56.117,-110.65,1329.778,1517.078,581.944,839.578,1002.744,1879.811,1844.578
829.6,-36.775,-112.408,503.461,318.553,929.222,741.394,854.056,590.228,125.394,-13.742,309.447,521.489,52.392,992.756,38.953,-64.075,1060.461,30.258,-122.408,1246.122,1456.556,560.094,849.994,963.256,1759.289,1810.494
842.4,-19.175,-42.275,480.083,348.125,964.1,695.35,891.544,592.317,123.817,12.825,261.505,478.267,56.558,1016.0,54.783,-73.942,1008.783,65.525,-47.175,1267.744,1515.278,562.817,794.15,1007.244,1836.311,1750.15
855.2,-57.3,-168.433,508.594,320.48,912.644,664.461,825.722,605.061,134.061,-21.267,330.373,478.611,17.933,965.744,28.477,-101.433,1051.894,22.767,-141.167,1240.456,1448.789,555.228,777.161,947.022,1727.856,1742.128
868.1,-9.592,-103.492,447.2,353.319,920.8,697.333,907.711,572.467,155.533,-8.025,290.694,493.3,50.542,1007.067,23.577,-64.858,977.767,26.775,-134.292,1217.511,1445.011,559.467,817.533,973.911,1787.511,1722.3
880.8,-28.442,-112.642,437.272,346.7,931.344,698.639,873.744,556.506,129.306,-36.275,303.153,526.978,13.325,1018.711,37.479,-65.475,970.372,40.392,-139.708,1256.144,1494.078,544.206,777.372,935.378,1811.678,1759.106
893.6,-26.183,-67.45,459.106,335.155,930.3,653.339,876.867,590.506,144.639,-10.883,305.281,493.767,25.917,983.2,44.012,-61.283,1022.239,61.05,-110.817,1209.433,1462.933,519.439,805.072,960.267,1816.133,1765.772
906.4,-12.958,-87.125,441.889,349.527,912.778,651.189,904.633,589.589,112.489,17.442,291.592,497.911,18.442,967.978,44.964,-58.325,971.322,16.675,-128.658,1223.133,1454.867,514.222,758.922,979.8,1782.133,1728.289
919.1,3.858,-52.175,488.378,344.49,933.256,693.111,846.133,539.711,124.311,20.825,297.874,506.989,23.392,986.922,26.649,-60.075,971.578,54.992,-71.542,1234.2,1437.767,521.644,764.778,952.1,1800.733,1775.711
931.8,-46.108,-94.308,441.117,339.975,933.044,658.583,868.333,564.417,118.617,-15.475,276.888,532.544,6.092,1006.011,34.863,-67.575,958.517,32.458,-113.442,1232.167,1428.033,511.617,753.883,951.767,1772.7,1723.983
944.4,3.808,-78.958,447.856,339.53,921.489,618.056,852.067,531.589,83.389,12.575,262.334,529.256,41.942,980.889,48.457,0.442,962.222,28.042,-104.258,1221.833,1491.933,512.222,776.322,956.333,1830.333,1703.889
957.1,-32.042,-83.242,431.617,319.863,872.756,641.65,883.244,523.717,82.317,41.358,290.38,494.422,65.758,955.556,50.039,-74.542,930.983,6.425,-100.675,1195.511,1394.444,494.483,728.35,978.011,1765.244,1716.983
969.7,-45.858,-78.792,424.367,343.405,874.822,635.833,818.467,507.4,106.733,14.175,312.477,500.122,20.975,1005.756,33.951,-83.525,955.867,54.642,-65.892,1194.233,1385.967,492.267,730.367,916.733,1774.1,1723.967
982.3,-31.5,-40.633,379.822,347.963,888.489,650.189,863.478,518.956,81.689,48.633,301.231,521.822,48.0,1001.289,37.963,-70.433,899.922,44.967,-36.1,1173.578,1414.844,491.622,746.656,883.544,1853.111,1690.622
994.9,-6.442,-74.342,435.267,388.81,993.4,608.833,925.144,555.1,101.433,3.992,268.262,552.333,77.392,1049.867,28.939,-69.975,936.5,78.658,-51.475,1227.578,1467.544,496.767,715.267,945.478,2047.144,1737.567
1007.5,-34.858,-11.092,508.928,424.83,1120.844,614.461,1010.2,546.994,169.328,29.375,294.619,674.844,53.442,1136.311,35.678,-50.092,931.894,14.575,-1.058,1300.8,1567.767,548.861,720.894,1035.733,3112.6,2214.828
1020.0,-53.35,-60.183,468.55,468.318,1108.044,669.883,1066.744,601.417,201.183,51.15,272.938,714.344,78.417,1193.211,45.865,-71.783,966.75,24.05,46.117,1372.311,1556.244,596.383,788.517,1095.011,5924.078,3901.85
1032.5,-16.675,-14.708,506.006,486.68,1126.722,675.339,1052.333,609.539,176.772,97.158,291.162,729.589,118.592,1194.556,36.739,-31.842,938.372,18.292,85.925,1326.967,1468.567,596.906,744.272,1029.4,4266.6,3392.739
1045.0,-10.108,66.392,586.372,553.72,1321.511,672.572,1164.567,675.906,244.972,131.125,261.234,861.844,191.325,1326.244,64.786,-4.908,989.239,88.592,228.958,1454.533,1604.8,634.772,728.506,1169.4,2374.7,2014.639
1057.5,38.033,279.4,688.878,763.817,1553.133,726.044,1347.7,829.444,479.378,338.333,277.903,1065.467,341.933,1663.1,78.453,115.533,924.711,84.533,540.467,1567.0,1582.7,761.111,764.678,1362.167,2248.1,1870.678
1070.0,215.492,1288.792,1497.644,1693.873,3265.867,1143.844,2596.589,1732.444,1544.244,1332.725,297.917,2697.033,1356.725,3546.767,226.206,763.892,1184.544,159.958,2261.592,2405.489,1672.656,1400.044,854.278,2343.689,2872.856,2192.411
1082.4,608.375,3294.342,3891.661,5131.338,7125.367,2440.028,5445.811,4347.361,4669.361,3217.308,321.068,6403.8,3104.142,7950.4,593.654,1823.808,1846.428,286.508,7111.275,4383.611,2107.478,3407.794,1254.328,4570.611,4370.244,3330.061
1094.8,375.242,2340.108,3599.667,5633.825,5419.189,2107.367,4176.489,3952.567,4341.1,2313.775,274.206,4947.722,2077.608,6158.089,480.828,1201.642,1677.1,235.675,6472.175,3466.156,1959.622,2991.133,1193.267,3529.256,3683.222,3048.467
1107.2,70.208,581.375,1356.833,2088.096,2153.667,1004.467,1709.978,1481.167,1312.7,656.175,298.686,1750.567,591.208,2332.267,168.214,298.642,1085.133,81.008,1856.975,1815.311,1616.944,1196.667,819.067,1649.044,2335.044,2032.633
1119.5,-10.092,138.375,641.428,828.326,1264.344,666.528,1155.233,776.361,440.194,203.342,317.08,925.978,241.775,1416.478,65.354,21.708,961.794,61.808,481.308,1399.1,1458.0,677.394,767.094,1161.6,2143.867,1774.361
1131.9,-10.4,61.833,496.783,585.605,1079.811,634.917,999.056,632.75,222.283,115.333,331.092,683.944,142.267,1231.578,62.797,20.667,886.917,73.967,250.667,1352.389,1494.156,567.117,721.417,1016.389,2329.689,1895.383
1144.2,-64.117,4.417,453.706,502.275,1110.378,621.172,936.433,554.139,171.706,79.217,335.557,697.211,63.717,1134.711,49.962,-15.283,892.806,65.483,136.883,1274.567,1508.167,548.139,772.572,983.367,2654.2,2099.639
1156.5,-43.9,1.4,466.778,454.642,1022.333,623.944,909.356,550.178,143.278,69.333,374.816,591.533,94.733,1074.733,37.027,-42.033,875.644,57.567,98.967,1252.089,1512.689,507.044,737.678,1017.156,2565.856,2100.278
1168.8,-84.283,-27.15,439.956,452.058,1049.878,667.922,990.278,597.756,163.822,35.183,408.594,612.911,53.117,1073.278,43.855,-48.65,956.656,11.483,79.417,1337.311,1556.878,562.522,829.356,1079.178,2082.278,1773.689
1181.0,-81.6,-15.667,441.633,462.378,1093.578,667.733,1030.611,555.667,155.5,50.033,522.94,604.944,45.533,1144.578,49.043,-59.233,1045.433,48.733,81.267,1407.244,1671.011,599.033,934.8,1119.511,1875.444,1647.933
1193.3,-17.15,26.617,567.794,472.146,1310.556,775.028,1169.033,668.628,240.028,101.45,680.342,787.989,84.95,1329.922,51.518,-24.783,1171.828,44.95,183.783,1611.167,1957.533,649.661,1119.628,1309.833,1975.033,1640.161
1205.5,8.175,3.042,709.733,589.17,1669.167,1113.233,1637.4,905.167,412.833,163.642,1146.149,876.933,182.808,1579.967,53.961,19.542,1650.133,22.775,265.742,2297.133,2880.367,912.3,1813.267,1811.9,2365.367,1848.667
1217.7,-32.983,133.683,1109.422,679.257,2806.733,2101.722,2815.722,1573.589,724.556,224.117,2660.126,1317.833,229.083,2377.467,78.138,83.55,2952.022,56.483,442.45,4065.856,5210.022,1638.389,3596.989,3250.956,3171.489,2411.722
1229.8,53.45,472.617,1892.95,1056.88,4510.033,3580.717,4533.978,2765.983,1381.317,520.417,5067.678,2129.5,526.717,3771.9,130.298,237.95,4804.383,85.517,1025.683,6374.044,8070.278,2840.417,6234.35,5208.511,4203.444,3142.917
1242.0,123.983,1000.85,2315.339,1942.23,4738.533,3607.006,4424.044,3111.406,2072.139,1094.25,5247.856,2885.467,1059.95,4342.1,214.875,523.65,4558.639,66.783,2213.083,5780.844,6867.378,3003.739,5777.239,4898.678,4012.511,3142.206
1254.1,168.075,1085.308,2048.867,2528.656,3662.711,2239.633,3143.944,2451.6,2129.533,1139.975,2705.358,2778.678,1122.175,3700.578,255.331,558.975,2718.2,171.975,2790.742,3573.278,3681.044,2181.633,2962.7,3193.344,3043.111,2457.233
1266.2,84.667,823.233,1498.928,2007.217,2758.956,1585.728,2337.967,1893.994,1647.928,858.633,1243.294,2164.222,895.633,2891.622,206.053,465.5,1825.594,104.167,2072.467,2584.4,2490.367,1644.361,1715.794,2328.067,2616.833,2164.261
1278.3,221.833,1131.467,1632.472,1921.552,3097.089,1494.739,2563.289,1871.439,1642.906,1137.9,952.648,2375.789,1078.233,3209.822,220.563,608.933,1651.939,160.033,2185.4,2702.722,2365.889,1618.972,1550.906,2558.956,2770.989,2186.772
1290.4,127.85,1109.417,1997.217,2488.832,3535.889,1689.517,2918.378,2352.617,2131.85,1143.683,1016.868,2876.922,1059.383,3713.389,252.792,571.95,1792.85,116.65,2903.317,2884.911,2324.311,1946.783,1633.283,2721.578,2941.011,2442.317
1302.4,75.467,645.867,1749.761,2280.167,2839.989,1541.061,2457.9,2020.061,1802.094,703.467,1121.671,2223.589,652.633,3023.956,185.303,277.3,1711.028,62.867,2382.567,2528.967,2302.6,1697.228,1617.428,2369.833,2882.7,2386.128
1314.4,18.467,362.2,1211.722,1512.244,2207.422,1296.722,1860.256,1532.789,1154.789,419.0,1093.531,1567.956,399.4,2264.089,135.387,107.967,1565.822,29.333,1349.0,2216.556,2222.856,1282.456,1563.422,1948.022,2839.322,2244.089
1326.4,-5.3,260.5,943.317,1058.618,1658.0,1081.15,1481.089,1129.217,768.183,328.833,967.162,1110.1,289.367,1724.467,104.547,103.9,1392.683,54.067,816.333,1805.489,1916.922,1016.983,1342.483,1536.222,2593.489,2179.283
1338.4,-5.55,121.25,740.361,792.64,1387.611,955.228,1292.567,926.761,548.328,186.183,812.811,900.578,201.15,1440.011,62.915,20.217,1262.828,59.217,478.817,1620.5,1831.4,843.994,1192.261,1355.6,2276.567,1968.194
1350.4,-77.067,37.0,686.511,616.068,1307.967,851.278,1238.533,791.011,406.611,79.233,793.131,785.267,140.267,1297.4,60.96,-26.367,1222.878,-21.3,281.967,1617.567,1809.367,803.844,1198.244,1308.767,2137.5,1799.978
1362.3,-68.492,10.742,589.444,524.315,1191.722,810.178,1114.322,711.911,317.044,52.742,710.535,696.589,67.575,1099.189,39.678,-50.525,1151.911,21.775,164.075,1480.822,1726.922,735.944,1123.644,1156.022,2042.456,1751.844
1374.2,-62.233,-7.3,559.611,485.58,1001.889,710.778,930.122,656.144,252.278,20.433,600.165,580.422,28.533,1015.989,52.887,-33.533,1043.344,-17.433,115.5,1295.422,1481.622,635.778,1004.944,1021.356,1764.256,1591.244
1386.1,-43.75,-11.45,491.322,428.155,944.267,707.256,849.222,658.222,230.722,51.417,539.619,526.533,45.75,958.233,49.738,-49.717,959.122,3.15,123.817,1182.956,1403.256,559.222,893.856,926.589,1610.089,1491.189
1398.0,-63.758,-30.792,483.539,461.307,926.422,649.639,828.589,583.539,253.472,52.108,475.703,521.089,65.942,944.089,35.737,-64.892,943.972,35.842,104.842,1184.122,1389.822,577.472,807.239,926.689,1538.956,1445.406
1409.9,-23.108,-11.608,480.283,494.355,1037.289,634.317,887.811,599.917,304.95,70.058,399.619,596.689,87.792,1036.156,46.129,-22.042,941.817,31.358,121.392,1223.544,1419.244,561.017,781.517,959.878,1670.044,1350.417
1421.7,-64.125,18.642,509.161,494.802,907.167,647.761,853.211,644.161,295.828,41.808,464.884,613.467,107.775,990.7,38.294,-19.925,874.528,21.842,207.875,1115.344,1263.911,573.528,780.728,903.644,1485.544,1410.994
1433.5,-2.783,79.517,552.25,564.59,1068.422,612.217,894.622,666.95,351.483,133.35,406.043,693.456,157.483,1081.589,69.215,5.25,910.35,39.283,278.717,1184.456,1265.789,567.483,744.55,963.389,1501.656,1407.05
1445.3,-35.483,126.917,641.106,706.993,1218.933,682.139,1005.533,730.039,446.439,176.283,396.159,824.133,170.55,1279.933,74.468,10.85,900.139,-15.817,448.783,1225.1,1294.867,659.472,732.339,1038.367,1605.0,1426.672
1457.1,-5.45,296.55,843.539,998.695,1591.844,767.872,1282.744,973.906,754.472,331.317,407.718,1217.611,330.75,1719.011,98.692,127.183,935.572,31.45,882.75,1382.678,1264.844,814.472,773.472,1240.344,1723.978,1544.339
1468.8,45.075,519.475,1037.122,1395.032,1814.733,850.056,1478.633,1212.689,1037.222,569.208,420.389,1473.133,509.508,1971.867,144.074,245.608,971.222,31.375,1336.408,1523.933,1303.4,969.856,809.589,1421.833,1831.933,1620.189
1480.6,73.517,401.917,899.844,1218.721,1548.556,926.644,1301.022,1041.978,790.444,450.517,347.86,1166.489,442.183,1662.422,95.985,212.55,1088.778,35.783,964.35,1442.189,1414.789,841.411,966.711,1281.622,1879.089,1718.578
1492.3,-44.15,181.317,696.367,826.25,1202.567,681.967,1070.878,837.367,521.5,250.15,437.675,842.133,263.883,1258.6,81.238,58.183,917.9,31.15,547.417,1255.744,1269.344,710.767,757.8,1052.344,1733.411,1525.167
1504.0,-12.058,124.942,583.406,700.573,1100.033,649.506,984.556,718.906,442.906,165.408,455.173,731.8,177.208,1202.067,58.921,63.708,931.706,26.675,405.942,1250.956,1351.722,662.706,769.039,1011.422,1745.122,1515.072
1515.7,-15.358,69.008,639.256,687.017,1222.089,710.522,1037.311,707.356,434.856,155.442,423.335,802.222,202.475,1265.222,73.091,51.608,936.589,19.075,361.008,1297.178,1403.111,654.256,839.389,1069.078,1908.978,1441.789
1527.3,-12.817,163.317,627.533,690.597,1288.567,700.767,1054.567,750.833,431.633,237.383,449.24,777.5,226.883,1252.7,74.472,68.383,987.833,74.75,403.617,1365.133,1498.067,656.7,880.0,1045.667,2056.1,1569.5
1539.0,-2.333,124.1,620.633,645.038,1152.356,700.3,1018.2,713.267,430.133,157.933,535.875,750.056,171.433,1184.122,59.71,34.433,979.4,20.133,373.4,1264.9,1431.4,663.733,859.967,1043.567,1887.833,1585.2
1550.6,-18.942,156.192,642.828,695.345,1259.044,748.094,1062.811,796.761,452.261,199.458,567.377,828.578,210.092,1261.478,72.616,25.792,1016.261,35.292,447.725,1339.544,1494.311,695.361,938.528,1122.278,1862.478,1511.761
1562.2,-29.367,120.933,731.867,778.933,1386.056,789.833,1208.511,880.3,545.8,240.467,597.66,983.989,217.233,1414.156,81.72,91.1,1087.067,33.6,559.533,1502.211,1632.678,803.833,979.667,1270.544,1963.844,1562.3
1573.7,54.033,293.133,794.406,899.388,1516.578,890.272,1241.678,940.039,621.706,349.633,673.998,964.544,355.9,1505.111,81.777,145.033,1059.906,76.5,771.133,1543.411,1680.944,839.306,1090.939,1369.644,2000.578,1617.539
1585.3,43.6,288.833,893.833,990.094,1719.333,902.633,1391.467,1014.867,700.8,373.633,730.895,1132.6,350.933,1653.633,96.263,159.5,1190.567,70.9,778.033,1684.933,1798.433,897.8,1189.267,1466.867,2145.033,1700.233
1596.8,-9.417,383.85,957.711,1103.83,1821.822,1052.144,1559.2,1168.344,844.611,434.05,763.776,1297.256,395.383,1883.122,101.618,189.45,1280.711,63.283,1000.317,1790.933,1889.267,1062.078,1255.144,1581.433,2254.533,1787.044
1608.4,79.333,492.2,1145.089,1346.428,2160.478,1184.722,1828.856,1380.522,1052.389,528.767,958.56,1596.378,503.133,2132.911,147.807,246.133,1393.022,45.033,1350.1,2102.656,2029.156,1231.622,1411.322,1812.922,2505.422,1939.256
1619.8,98.925,618.625,1420.828,1698.086,2902.944,1436.461,2423.744,1704.128,1463.561,684.025,1092.797,2154.444,700.392,2867.011,169.203,328.425,1645.928,51.958,1818.592,2605.978,2498.044,1512.994,1656.128,2374.644,3006.478,2175.728
1631.3,133.917,1223.25,2133.65,2509.06,4282.967,2122.417,3626.4,2571.517,2369.35,1222.783,1684.385,3298.467,1153.917,4203.4,236.752,565.717,2311.117,103.417,3047.55,3840.033,3526.267,2257.317,2451.617,3503.933,4168.0,2891.183
1642.8,270.583,1681.55,2798.544,3317.613,5155.189,2685.778,4236.378,3251.411,3055.111,1718.383,2342.911,3907.756,1721.283,4948.922,328.178,938.517,2896.111,95.517,3942.317,4611.078,4326.244,2869.644,3225.678,4194.178,5003.011,3591.078
1654.2,151.55,1215.617,2238.061,2744.148,4103.167,2464.561,3495.467,2714.594,2365.594,1254.85,2413.769,2937.033,1225.183,3935.233,254.262,588.25,2776.961,101.55,2955.117,3966.5,3921.833,2426.761,3102.428,3569.667,4073.9,3061.328
1665.6,131.025,779.792,1706.528,2007.995,3281.733,2005.061,2770.622,2148.361,1714.394,849.258,2126.693,2213.267,791.692,3079.967,199.253,395.458,2405.194,60.425,2042.258,3320.389,3463.289,1988.294,2704.161,2937.856,3177.656,2422.894
1677.0,53.892,613.625,1330.05,1616.226,2544.633,1608.183,2157.522,1696.017,1317.317,610.658,1787.863,1748.067,615.558,2404.067,140.996,316.792,1945.95,39.225,1568.258,2669.456,2771.922,1533.983,2137.817,2297.456,2421.389,1969.417
1688.4,46.808,353.875,1022.467,1203.783,1889.2,1271.8,1654.056,1292.233,912.633,397.142,1402.706,1196.5,375.775,1792.9,105.694,180.708,1611.667,54.608,999.442,2127.356,2293.322,1190.767,1712.933,1731.856,2010.656,1625.533
1699.8,-10.808,206.825,791.322,907.865,1542.222,1029.656,1357.411,1049.622,606.189,272.592,1188.235,915.289,273.725,1460.489,63.769,79.658,1334.956,64.458,623.892,1761.444,2010.244,920.356,1406.056,1488.444,1740.178,1519.889
1711.1,-36.425,136.875,679.544,750.67,1303.056,939.878,1137.956,895.644,522.811,156.542,1067.554,742.922,151.942,1256.822,66.114,48.408,1195.144,44.775,452.975,1562.489,1810.556,842.311,1314.711,1264.656,1540.189,1359.378
1722.4,-28.275,102.158,612.45,653.049,1201.2,818.417,1068.456,778.05,394.717,133.392,974.149,637.367,137.892,1080.833,61.693,30.092,1105.983,40.492,343.225,1463.589,1697.856,746.35,1206.15,1156.956,1491.522,1276.05
1733.8,4.25,71.183,520.672,606.095,1075.644,753.772,910.267,717.606,315.272,121.15,902.489,594.978,113.617,1026.044,66.515,3.483,1055.839,45.65,266.083,1331.133,1615.433,658.139,1106.372,1101.767,1390.667,1178.506
1745.0,-27.5,37.3,497.561,523.492,1000.833,728.561,911.289,673.061,280.894,48.167,836.468,540.033,65.2,944.033,45.053,-17.2,1030.328,41.967,171.0,1278.556,1511.122,597.361,1032.061,1002.956,1347.056,1165.294
1756.3,-1.517,20.017,473.994,522.599,966.789,658.628,842.7,619.794,232.128,68.417,772.486,506.222,76.85,909.756,45.788,12.783,1012.194,63.783,137.217,1186.133,1481.833,559.828,940.761,966.7,1317.433,1173.594
1767.6,-19.592,-1.358,427.089,480.681,874.822,593.889,765.111,556.122,213.756,16.808,708.11,437.356,13.375,857.022,44.148,-18.792,887.956,31.775,64.742,1109.878,1375.544,520.056,860.022,875.078,1234.378,1125.356
1778.8,-0.267,-12.333,369.0,507.58,870.711,550.367,767.022,508.167,198.567,38.5,613.64,452.078,74.733,857.144,45.147,0.867,867.967,92.867,89.267,1066.456,1297.922,472.233,814.367,852.456,1258.956,1053.233
1790.0,-30.908,-6.808,357.828,511.738,817.344,505.661,644.889,468.094,170.761,45.692,576.313,411.211,61.725,793.078,32.172,-48.175,755.828,47.825,25.092,1018.856,1234.456,394.428,768.994,748.256,1228.022,978.261
1801.2,19.417,-10.283,347.783,527.715,699.911,500.583,609.656,415.95,135.217,57.95,536.092,396.111,75.883,748.411,52.718,21.117,741.95,65.617,68.983,954.722,1162.756,388.05,700.95,725.622,1192.789,980.117
1812.4,4.2,-23.3,367.533,470.897,734.844,447.2,635.256,447.067,175.033,15.033,507.714,358.644,51.967,721.211,32.23,-29.2,696.833,64.067,25.933,858.322,1097.122,428.4,627.733,707.522,1142.856,1007.067
1823.5,-15.833,-82.633,334.15,464.49,678.222,433.95,566.411,443.35,114.283,-5.9,486.38,370.356,-146.867,673.722,28.613,-23.533,670.017,30.567,-43.8,836.444,1007.811,365.617,555.217,635.478,1089.011,959.917
1834.6,-9.558,-44.592,307.306,428.361,635.689,396.172,565.833,395.339,108.106,25.542,454.545,280.089,51.408,596.089,36.664,-55.125,622.606,55.842,-21.658,802.967,987.233,361.939,569.306,586.967,1039.067,933.706
1845.8,-14.483,-55.25,329.244,435.68,638.256,413.978,535.244,386.111,109.278,-5.383,412.654,335.022,8.85,648.856,33.995,-17.55,581.844,26.583,-22.117,808.611,915.944,331.978,490.211,588.778,1066.911,922.878
1856.9,21.217,-12.55,295.828,441.66,627.833,394.261,530.111,363.761,106.961,42.117,375.575,342.767,-0.583,636.467,35.135,-52.783,598.261,54.05,-15.25,789.311,928.878,346.928,507.661,615.344,1082.711,949.528
1867.9,5.775,-13.358,287.606,460.37,696.211,358.239,532.144,353.872,82.706,44.508,305.887,364.378,51.442,709.511,48.338,-37.358,572.906,82.242,17.875,768.844,968.544,357.539,539.472,587.444,1064.311,911.239
1879.0,-5.75,-15.217,311.106,419.96,516.878,381.706,518.4,392.072,72.906,-21.017,327.352,301.078,35.45,575.211,42.752,-71.483,523.172,14.183,-4.917,689.5,925.667,343.272,503.372,541.767,1063.933,893.106
1890.0,-19.0,-33.7,298.178,423.631,560.844,353.711,506.722,360.678,120.711,-9.433,320.139,287.378,33.1,571.878,46.153,-38.067,549.411,40.967,31.1,686.356,851.556,352.878,457.544,541.856,968.056,881.011
1901.1,-27.925,-54.425,290.133,431.985,570.378,348.8,498.544,350.967,116.2,-13.192,300.402,292.478,25.775,551.644,40.891,-52.725,511.733,10.442,30.042,740.811,835.411,324.533,426.867,547.711,945.844,859.767
1912.1,-29.858,-30.892,258.767,396.509,540.589,341.867,439.733,347.0,79.667,-30.692,306.566,274.289,10.008,574.656,34.644,-64.892,538.567,-0.358,28.808,634.333,788.067,309.267,457.167,446.567,858.767,835.733
1923.0,-45.608,-2.975,254.95,394.83,541.511,343.717,408.367,326.383,31.65,4.158,288.723,240.844,27.758,537.478,44.446,-35.175,532.283,12.258,32.558,684.467,811.1,278.983,425.05,474.833,957.267,800.917
1934.0,-34.675,-38.542,273.461,409.325,559.544,323.894,437.633,315.228,99.228,-18.442,265.251,308.578,-10.542,547.578,47.412,-18.875,565.094,31.725,6.992,654.5,842.933,260.728,440.561,492.9,950.333,841.394
1945.0,-13.617,-49.55,218.894,363.127,567.0,320.228,434.033,317.094,81.694,12.883,280.89,249.133,-6.283,595.3,29.245,-17.517,499.394,44.317,7.45,625.5,788.6,260.694,364.328,519.033,895.1,775.161
1955.9,-5.467,-27.967,248.728,360.13,510.044,328.194,416.9,286.461,49.661,3.733,241.252,247.678,17.7,526.044,29.203,-26.067,466.494,14.333,24.7,654.433,812.833,236.828,379.661,506.067,933.467,764.594
1966.8,-31.783,-44.417,231.228,358.945,461.467,303.994,381.156,311.594,11.661,-3.917,281.783,213.733,15.75,469.0,40.268,-49.85,505.094,18.383,-37.05,564.456,734.622,253.361,391.861,417.122,775.022,772.428
1977.7,-12.842,-15.875,218.217,393.62,477.556,277.583,386.589,287.65,66.15,-2.075,273.535,244.889,-14.275,457.889,30.316,-30.008,459.15,40.025,-7.508,578.222,771.122,250.583,367.183,437.656,850.956,750.083
1988.6,-35.575,-6.542,230.95,378.021,468.8,292.617,377.111,281.083,40.883,-13.475,269.593,217.133,7.625,454.967,42.209,-29.642,455.517,36.692,-1.808,556.044,737.678,192.717,362.017,469.878,868.778,721.117
1999.4,13.542,-46.158,202.144,375.04,450.678,274.011,344.356,267.011,62.078,28.808,250.343,227.944,-8.325,507.478,46.574,-19.858,397.478,37.075,-20.825,610.189,751.222,284.144,339.878,433.056,874.022,733.611
2010.3,-9.392,-10.358,203.094,386.27,445.222,261.661,363.489,260.794,52.628,-13.225,244.068,221.756,-21.858,467.289,28.124,-52.692,456.594,44.042,-38.492,595.722,742.956,210.061,332.728,453.422,836.489,694.328
2021.1,-69.233,-40.967,240.561,400.299,486.189,261.594,375.644,290.561,15.728,15.533,228.534,226.556,12.4,464.089,20.907,-23.533,465.894,39.1,-55.6,574.678,738.311,216.261,369.828,446.278,803.678,698.528
2031.9,-6.925,-29.425,176.622,369.853,441.156,282.156,376.056,264.889,21.222,-10.725,265.468,217.189,43.742,487.856,31.631,-17.625,446.556,36.908,2.475,595.522,746.822,242.856,347.222,425.889,827.322,673.989
2042.7,-27.358,-31.425,187.183,365.653,439.6,290.383,359.9,283.317,36.683,-34.092,291.504,217.733,13.342,462.967,38.827,-66.258,425.683,12.875,-13.925,571.933,694.233,192.883,361.683,394.633,774.1,687.317
2053.5,-12.9,-45.333,194.7,358.53,418.911,258.6,357.833,253.467,27.433,-9.5,279.967,200.878,10.333,427.578,20.187,-44.633,411.233,25.7,-20.9,553.667,673.333,231.667,346.867,406.2,749.633,657.6
2064.2,-34.808,-24.708,183.378,381.265,471.1,237.078,370.789,271.311,78.378,6.325,227.215,249.367,-10.408,464.0,37.006,-4.375,412.911,46.792,15.292,598.522,750.156,199.911,344.744,405.356,844.189,702.778
2075.0,6.958,-24.642,233.544,354.71,454.4,240.078,368.778,255.744,56.111,15.658,249.952,211.6,19.258,428.833,29.033,-53.575,398.544,9.958,12.558,532.911,697.344,227.311,324.778,416.078,812.411,683.211
2085.7,-43.95,-68.883,199.411,354.976,392.144,252.544,377.522,244.611,16.611,-18.217,293.761,174.044,-8.917,430.578,30.712,-44.15,390.378,-3.417,-11.583,528.356,653.756,213.544,335.644,387.389,731.789,633.178
2096.4,-28.067,-2.167,179.122,372.72,391.456,220.822,386.922,224.256,29.189,6.967,252.574,251.389,-7.7,443.589,28.09,-37.3,392.156,-11.1,6.3,515.289,672.756,220.422,304.889,370.556,769.656,652.856
2107.1,-51.567,-46.533,165.1,347.188,387.478,232.733,342.089,226.2,52.067,-12.2,246.413,215.244,-1.867,417.844,37.757,-35.4,396.433,14.967,-24.033,481.256,637.222,174.133,317.167,366.722,748.222,592.6
2117.7,25.683,-33.617,195.15,370.66,422.444,224.083,315.2,236.183,42.717,28.317,259.883,196.944,-2.25,472.311,35.892,-49.85,341.617,45.083,-19.05,495.067,682.367,212.717,307.783,375.367,735.267,598.85
2128.4,-5.9,-8.433,170.872,361.172,464.633,202.239,319.478,241.639,56.006,9.5,193.909,217.033,-9.867,449.967,38.383,37.167,364.072,50.9,38.467,516.978,711.411,219.939,319.272,405.911,796.478,612.472
2139.0,-18.283,-1.983,204.85,363.795,402.922,189.217,334.089,267.283,41.883,11.917,245.508,195.189,-14.717,403.022,58.355,43.917,389.883,7.817,9.317,486.456,637.756,246.917,344.317,366.422,676.089,607.45
2149.6,-33.308,-31.608,184.028,366.578,359.533,235.194,311.556,237.694,39.261,-21.142,245.543,184.433,0.358,380.8,42.779,-27.275,392.161,16.658,-32.275,512.589,631.822,195.628,300.294,397.489,695.656,558.594
2160.2,-43.908,-39.775,174.006,353.802,360.178,229.906,302.711,227.672,35.439,-2.642,268.638,217.311,4.425,401.978,38.236,-36.275,364.039,-22.075,-1.308,461.578,591.144,196.672,273.806,320.778,615.411,567.872
2170.8,-24.95,-47.983,203.094,358.816,389.833,202.394,295.711,217.961,73.128,-34.783,240.183,215.233,9.417,434.0,25.022,-10.15,370.461,21.35,-22.783,493.111,622.811,169.228,319.394,336.811,685.178,580.994
2181.4,-46.892,-10.992,165.361,344.945,356.278,207.794,291.033,228.128,33.861,2.575,239.435,187.244,-2.425,400.644,28.168,-42.158,340.928,39.675,-26.758,427.833,583.0,201.194,283.394,312.8,640.867,562.194
2191.9,-29.975,-44.575,184.256,347.803,378.867,213.089,292.978,244.422,7.689,-31.608,235.883,176.5,-5.842,356.9,33.033,-44.542,334.356,47.158,3.225,438.211,609.644,154.256,294.422,353.211,701.311,540.889
2202.4,-10.742,-15.375,144.033,343.43,359.967,189.033,328.411,198.167,-0.233,3.758,10.472,201.2,-0.075,386.667,42.812,-19.608,338.667,-2.375,-4.408,490.911,613.044,165.967,270.7,360.444,674.444,544.167
2212.9,-8.525,-21.758,175.667,355.884,402.133,244.433,310.933,207.967,45.333,-14.658,216.844,209.2,9.508,427.9,21.948,-29.325,367.1,43.542,-16.992,480.167,607.167,182.033,291.667,364.067,692.367,593.333
2223.4,10.625,-22.242,185.133,335.958,398.067,189.333,268.011,219.667,34.667,5.125,219.76,171.233,-17.008,378.633,55.239,-26.375,344.533,35.758,24.892,465.478,617.911,166.2,286.533,325.744,595.178,531.233
2233.9,-0.908,-17.375,229.383,328.518,332.767,221.55,288.089,211.15,65.217,0.092,245.842,166.833,27.425,371.967,42.569,-27.375,362.517,10.858,-33.075,425.289,567.622,212.917,288.883,318.489,631.556,542.717
2244.4,-9.933,-61.067,183.711,341.203,357.556,196.511,262.811,227.444,53.578,-0.333,226.126,173.489,-4.9,354.889,28.41,-16.0,293.211,-11.1,19.233,408.411,536.078,186.378,263.444,360.078,626.244,498.811
2254.8,6.158,-24.942,154.478,355.36,409.122,189.444,302.644,202.144,51.778,37.492,242.882,174.822,6.792,377.389,38.852,18.125,327.578,19.358,35.825,466.211,594.344,184.811,256.344,341.311,652.011,525.344
2265.2,19.917,-24.35,188.067,357.72,371.9,193.867,276.522,202.2,22.467,21.917,239.924,187.0,37.517,382.0,36.422,-23.717,287.667,18.017,-6.85,471.556,539.289,221.367,221.467,351.256,629.522,498.167
2275.6,-38.767,-38.333,170.444,333.967,369.111,166.344,226.922,205.011,0.078,-24.067,249.724,167.111,-10.467,335.144,33.023,-19.167,323.911,33.633,18.567,398.589,500.856,133.511,255.511,281.322,578.922,516.811
2286.0,-30.0,-1.1,126.439,336.948,274.656,177.439,268.456,203.206,42.806,-18.833,225.849,176.122,-4.0,303.422,42.527,-19.233,328.572,28.933,-41.967,400.056,496.222,163.372,269.072,298.989,637.556,508.706
2296.4,-32.317,-32.917,90.2,315.495,361.811,159.433,251.556,153.267,22.8,1.55,238.445,168.978,16.683,365.278,26.318,11.55,284.467,1.917,-7.483,394.289,501.622,156.033,236.767,287.756,561.422,453.833
2306.8,-15.367,-20.833,150.106,343.994,307.067,162.706,241.789,186.039,39.039,23.533,258.801,163.067,12.233,303.733,31.13,-16.2,269.739,3.333,-6.6,370.422,462.289,149.239,239.106,249.222,514.622,466.839
2317.1,15.85,-52.25,142.844,337.343,342.678,196.278,277.222,192.278,39.378,8.117,219.464,172.478,19.783,337.511,43.082,-7.55,277.078,46.783,13.95,394.556,566.889,152.478,219.778,314.789,601.889,488.844
2327.4,13.692,-27.508,155.267,356.235,359.6,178.133,271.822,179.4,36.2,27.725,232.294,179.2,18.192,344.433,37.352,6.158,275.167,14.058,13.292,411.256,474.956,149.567,226.0,306.022,571.222,392.733
2337.7,-14.025,-9.592,152.889,341.279,319.522,170.322,209.556,188.856,74.089,-16.225,239.275,165.756,25.108,324.789,47.601,-3.858,254.756,4.575,-2.225,335.189,457.256,135.289,224.389,262.222,510.056,452.856
2348.0,-5.517,-32.683,120.35,360.343,367.5,187.817,214.078,149.05,28.65,-23.95,231.356,192.767,24.183,388.0,43.625,11.083,264.85,41.617,6.517,425.644,500.411,145.65,175.15,289.311,575.811,422.55
2358.3,8.65,-19.117,127.106,362.668,339.422,183.439,257.889,162.872,27.306,4.083,266.227,185.356,13.917,335.889,44.568,-14.717,255.672,47.55,37.183,404.489,504.522,148.406,264.339,343.156,589.089,428.106
2368.6,-18.2,-14.467,143.039,349.517,340.089,148.772,235.489,138.439,32.972,3.967,225.479,174.322,1.333,357.956,50.417,-13.633,267.472,36.633,19.0,450.356,471.822,177.739,258.772,303.922,500.356,382.672
2378.8,-34.408,-35.342,150.922,362.725,325.067,157.022,247.422,165.356,54.922,-33.075,233.99,169.2,-3.808,371.2,49.826,1.025,298.322,4.958,-19.108,402.522,487.322,142.289,241.156,278.122,551.456,415.322
2389.0,-21.208,8.925,154.944,349.05,286.3,171.811,212.078,156.178,52.578,-11.942,285.759,144.233,-2.775,282.967,36.179,-39.375,244.244,8.292,4.558,339.911,399.378,142.411,222.811,251.578,489.444,434.878
2399.2,-10.983,-10.583,147.389,332.592,311.8,162.589,237.511,168.622,49.922,0.917,247.316,160.067,-6.25,325.467,25.782,21.15,242.656,22.75,0.85,372.344,458.611,159.189,232.556,254.678,544.178,412.089
2409.4,-16.9,-18.967,169.656,335.056,293.5,178.389,232.3,164.756,0.256,6.8,263.539,152.033,12.833,294.067,38.563,-4.667,261.489,-18.033,18.067,333.2,423.8,163.422,197.689,271.333,464.833,381.522
2419.6,-9.6,-18.333,127.906,342.872,293.067,172.506,244.578,192.806,82.372,2.433,232.862,166.033,11.4,283.633,52.51,-7.8,261.772,35.033,27.333,375.011,410.544,160.972,256.139,295.611,488.144,430.006
2429.8,13.458,-8.142,164.206,370.853,361.178,154.706,279.767,173.806,56.172,27.125,215.298,173.878,41.625,296.644,43.216,-13.675,282.472,61.992,11.625,390.6,501.767,177.139,229.706,295.633,557.533,392.772
2439.9,3.533,1.733,149.75,355.432,375.233,151.217,255.033,162.75,45.583,13.667,202.227,225.733,4.367,341.7,40.217,26.0,281.15,14.167,57.667,373.733,508.967,143.483,239.183,271.2,553.033,368.983
2450.0,18.683,16.017,146.044,319.809,295.067,161.611,223.9,167.211,40.678,20.617,240.58,154.867,28.383,273.2,30.882,7.583,274.011,14.817,72.15,318.6,403.8,141.711,219.544,222.133,449.0,403.911
2460.1,9.1,23.067,124.372,350.425,258.889,144.206,210.744,176.072,30.272,8.867,214.871,135.456,12.7,267.789,45.037,-7.9,225.139,0.233,54.133,310.244,367.378,150.106,221.672,238.311,504.244,364.506
2470.2,-17.642,-10.475,81.944,305.407,306.444,139.311,250.856,159.511,37.011,-5.842,220.118,151.644,32.958,298.678,23.986,-14.508,237.144,49.325,13.725,363.556,440.689,139.511,229.478,251.522,495.389,354.511
2480.3,-28.667,5.7,116.733,317.125,327.5,175.967,214.211,149.8,26.567,0.633,226.351,164.033,13.333,319.8,42.74,-6.5,239.833,51.733,25.733,327.978,420.411,135.533,233.6,269.744,491.344,353.7
2490.4,15.775,-16.158,131.172,316.045,301.889,122.672,252.1,162.272,22.539,20.308,199.089,166.656,49.242,297.722,31.308,-13.192,179.706,43.242,53.108,340.133,465.467,117.539,160.739,304.833,494.567,338.006
2500.4,-0.9,-26.2,92.4,319.17,259.089,157.567,190.867,135.633,27.3,-18.733,230.903,140.156,-29.767,248.922,39.087,0.9,201.7,-23.0,8.2,286.267,369.4,101.333,208.0,210.4,427.567,344.0
2510.4,26.842,13.308,136.75,367.105,308.933,155.117,215.633,148.383,69.35,-13.792,207.928,141.833,63.408,290.967,48.414,-36.425,237.45,26.242,53.808,319.6,452.767,136.883,203.583,232.3,448.833,360.817
2520.5,-13.417,-8.75,97.822,313.788,272.222,106.322,198.589,144.289,0.622,35.517,215.641,160.089,31.517,268.122,48.838,20.617,234.756,35.45,51.983,271.556,397.422,86.956,141.722,219.122,463.722,311.422
2530.5,-45.8,-4.9,118.983,319.766,260.0,120.083,185.667,114.217,23.217,-4.0,207.869,170.867,8.233,274.367,44.773,8.7,184.817,24.767,40.9,269.833,333.967,103.45,171.317,209.233,419.567,318.017
2540.4,-22.817,-22.483,128.172,325.431,244.0,136.339,166.944,144.772,43.072,-4.917,241.387,121.4,-3.283,260.333,35.628,-26.317,162.939,26.383,6.25,264.878,336.111,94.739,174.006,228.578,409.644,336.106
2550.4,-19.458,-35.058,114.622,315.71,268.056,170.989,204.378,146.422,39.422,-11.692,213.625,143.956,10.975,268.022,52.468,-21.125,200.722,31.742,-21.758,297.611,351.578,158.622,173.856,190.711,400.578,329.789
2560.4,1.342,-3.825,95.028,284.995,224.011,111.461,172.5,138.461,43.894,6.375,247.095,106.111,12.275,216.478,45.244,3.875,224.928,5.908,32.708,251.567,310.7,136.561,170.994,188.667,339.167,306.061
2570.3,-49.4,-27.133,129.472,306.943,227.0,140.306,198.922,132.472,45.039,2.3,214.811,116.067,-16.567,236.6,40.387,-40.0,214.472,-19.4,15.267,298.622,367.856,113.206,181.072,173.056,419.589,320.406
2580.2,-6.442,-18.808,114.583,324.29,282.089,131.317,169.178,136.55,57.85,27.958,204.868,136.356,-1.875,243.256,34.676,-41.342,210.317,28.758,39.958,258.811,313.944,115.583,151.15,257.444,395.644,310.25
2590.1,17.258,27.158,136.783,321.239,251.722,124.75,136.533,127.217,37.983,30.425,231.314,119.389,6.525,215.989,42.519,-2.608,199.683,30.825,38.925,247.167,330.7,92.15,138.683,191.1,362.7,299.183
2600.0,-6.775,10.525,108.894,303.652,285.722,168.328,189.078,147.361,45.394,-1.075,211.106,118.522,-42.475,287.089,39.886,-30.475,205.594,30.458,-29.108,313.944,410.044,122.094,193.794,241.344,463.378,297.094
2609.9,-4.608,21.692,85.75,335.529,326.278,121.55,195.944,160.683,56.183,15.558,184.947,150.944,33.892,270.078,42.523,-16.408,170.95,3.058,89.358,334.978,437.078,113.583,145.717,241.911,474.044,304.683
2619.7,6.283,26.883,100.828,311.262,313.622,119.894,245.889,150.461,32.228,34.55,196.069,163.056,29.95,262.356,42.945,-0.75,200.528,41.05,49.45,304.656,402.656,112.528,177.861,262.022,485.156,279.561
2629.6,9.992,-3.008,109.722,303.849,253.189,135.222,152.7,145.189,64.056,7.158,232.159,147.522,27.458,249.356,50.239,17.325,194.889,14.025,31.658,274.3,333.5,118.856,202.389,237.167,382.2,316.122
2639.4,3.092,31.692,115.917,292.185,261.278,124.85,182.122,141.45,60.483,1.392,184.976,145.711,13.325,257.644,33.506,11.858,205.017,-17.975,28.725,261.589,372.922,128.85,153.95,229.456,383.789,279.417
2649.2,31.942,7.942,123.55,302.205,301.311,179.917,198.367,161.783,92.45,35.175,219.663,156.078,42.575,266.244,32.264,42.008,207.483,49.008,25.942,315.033,338.267,162.283,187.483,195.333,409.733,292.55
2659.0,25.65,11.05,130.861,321.151,313.756,131.394,213.889,182.094,85.161,18.883,166.629,140.922,40.617,279.722,38.502,66.883,144.161,95.35,36.083,348.222,457.256,99.894,140.128,245.156,496.022,304.761
2668.8,-13.883,29.05,118.472,289.214,239.844,170.706,216.322,185.472,70.039,46.683,197.001,132.544,24.883,258.344,43.442,-12.117,196.306,55.483,44.717,269.589,362.122,113.006,192.339,250.122,402.522,308.239
2678.6,79.108,55.142,112.144,308.455,339.6,123.878,231.444,114.311,60.211,34.808,199.901,163.6,79.742,289.433,45.567,69.375,161.311,63.842,55.708,277.844,383.811,119.144,225.878,261.211,418.978,254.978
2688.3,9.475,-5.825,127.483,285.638,252.611,135.05,174.6,177.85,44.917,38.208,232.107,156.578,41.975,268.911,40.381,26.408,205.55,11.942,73.575,303.267,306.433,160.05,206.45,203.233,349.867,281.35
2698.0,23.917,66.35,146.911,325.09,335.922,151.711,277.622,176.744,111.978,50.683,190.287,178.922,64.217,303.689,38.685,78.583,228.311,35.45,115.183,345.822,414.122,174.244,197.478,263.789,406.589,282.478
2707.8,-14.575,50.325,129.144,328.003,311.356,120.811,223.956,151.278,90.011,19.992,198.142,200.422,21.625,284.556,28.026,19.925,222.111,13.625,92.258,321.222,395.956,161.778,196.144,291.856,424.922,303.444
2717.5,7.042,-16.625,111.133,306.266,276.044,114.2,279.167,125.867,75.833,-20.125,217.941,219.778,83.242,310.911,51.684,43.708,177.967,-40.692,86.108,347.667,342.8,172.233,157.2,261.833,436.267,310.233
2727.1,39.858,84.358,146.55,343.75,367.544,148.683,256.4,159.183,65.317,52.258,152.363,206.044,79.758,315.078,54.496,16.692,195.083,29.392,99.225,359.267,431.467,98.817,231.717,262.533,493.133,259.65
2736.8,29.292,50.492,162.583,343.14,377.289,182.45,228.222,173.817,107.083,50.692,151.867,192.456,56.758,327.956,30.806,46.092,206.117,30.292,112.025,340.289,433.556,157.35,218.983,264.756,449.556,235.417
2746.5,46.0,20.267,153.228,296.84,317.8,156.894,238.333,154.761,64.761,35.3,176.1,215.6,40.633,325.067,46.497,70.3,217.961,17.267,69.667,318.567,399.1,150.761,180.628,250.967,433.667,275.194
2756.1,13.542,27.675,160.7,298.34,297.067,124.233,233.733,147.667,117.0,20.208,184.54,181.967,46.908,284.3,48.954,37.308,206.967,4.342,104.508,319.9,343.633,157.467,216.767,251.567,425.167,273.567
2765.8,45.625,-2.975,154.367,295.415,273.167,149.433,205.211,172.633,143.9,42.258,175.752,179.6,37.125,292.633,36.303,20.792,232.267,34.358,86.858,316.278,369.578,173.833,181.3,245.611,402.211,316.867
2775.4,15.625,77.958,159.756,310.338,331.722,167.022,221.611,154.156,117.589,33.525,172.625,182.289,52.525,319.556,56.306,50.858,213.356,3.892,117.758,338.644,429.778,142.289,227.922,278.011,508.844,292.289
2785.0,58.283,62.35,153.944,317.985,307.711,136.478,212.778,167.011,141.144,47.55,163.702,149.044,50.983,286.378,47.698,50.45,212.711,37.817,75.883,316.878,382.944,139.511,213.978,242.878,451.144,266.278
2794.5,38.233,59.867,164.083,301.937,332.033,127.117,238.067,176.85,89.95,61.2,179.226,158.067,39.967,310.833,33.863,73.067,176.583,59.3,108.467,302.533,383.433,140.883,164.217,263.667,440.067,279.25
2804.1,-18.45,-12.983,119.389,302.89,357.378,124.856,214.967,148.789,72.389,50.55,160.207,204.744,85.617,325.578,47.512,34.283,178.122,29.883,139.117,304.733,359.0,143.022,196.856,242.233,439.0,318.489
2813.7,-19.408,32.292,154.589,304.845,306.656,139.522,233.422,160.656,81.256,55.925,179.188,177.256,36.125,297.356,46.229,28.225,165.756,32.958,101.325,302.122,372.189,170.322,159.289,288.689,475.322,253.056
2823.2,8.667,28.333,148.5,303.475,287.189,134.5,222.811,170.733,129.0,45.5,193.472,218.989,37.333,289.756,43.25,37.633,214.767,39.267,142.633,295.611,298.111,140.2,169.567,214.511,371.178,270.767
2832.7,9.375,68.875,155.4,336.647,375.167,132.9,236.489,161.4,110.8,74.875,186.839,219.933,63.375,353.5,47.008,37.942,158.0,11.042,190.675,317.022,335.089,131.933,152.667,236.789,421.056,258.667
2842.2,15.95,127.717,161.217,388.937,410.756,205.95,296.533,203.083,203.45,71.483,179.924,243.422,94.183,403.289,47.485,34.183,203.083,34.75,229.417,338.267,368.633,174.55,151.05,310.067,464.8,280.417
2851.7,5.783,71.283,251.589,414.87,437.222,173.322,310.244,293.922,260.789,90.317,203.407,333.522,84.383,461.056,49.138,39.883,196.489,22.383,338.85,370.211,306.044,250.222,174.989,310.811,464.544,297.289
2861.2,4.275,125.475,318.433,571.183,559.244,223.933,426.656,357.167,306.133,146.975,205.319,518.978,121.575,625.444,48.354,82.042,229.467,27.975,429.842,448.089,364.589,302.333,185.067,391.489,596.222,377.833
2870.7,25.392,178.525,388.028,667.004,642.856,230.194,505.856,381.661,404.794,189.925,179.141,580.022,198.225,747.789,64.276,98.158,247.294,51.992,594.625,523.856,428.889,335.528,218.828,460.322,730.889,418.328
2880.1,35.792,186.658,339.678,638.432,591.589,250.044,496.444,422.011,390.144,232.992,204.99,498.722,219.658,665.722,81.273,154.058,285.078,40.492,536.225,485.844,416.378,312.011,246.978,476.978,717.378,482.544
2889.6,73.117,240.55,439.15,505.343,654.556,381.517,559.722,491.217,392.183,186.317,103.764,421.589,220.583,661.922,66.358,189.05,376.783,12.85,411.317,608.122,619.989,448.35,343.35,463.056,794.222,525.717
2899.0,25.342,167.575,320.989,552.186,546.278,249.689,456.422,357.656,330.389,182.975,250.79,440.678,171.275,563.078,73.477,142.375,256.889,22.975,455.675,448.356,382.756,295.456,242.156,446.522,556.089,371.089
2908.4,18.367,191.067,338.783,561.163,575.167,239.75,422.856,370.55,358.283,184.7,251.557,466.2,203.833,595.967,83.28,145.067,299.75,15.133,483.033,466.722,428.622,316.917,276.017,401.756,597.822,441.183
2917.8,46.25,167.117,292.833,499.722,544.511,243.233,428.4,334.067,293.9,191.05,293.787,377.911,136.75,549.811,57.965,86.817,252.5,24.917,413.95,453.133,453.967,281.333,296.367,426.667,562.967,368.033
2927.2,55.4,171.433,262.728,500.195,573.656,283.694,421.633,304.628,239.328,148.1,275.449,372.889,114.1,573.156,63.44,112.133,267.628,45.2,341.433,539.4,581.767,280.661,292.761,456.333,613.867,327.428
2936.5,17.508,128.375,289.394,456.97,515.511,313.328,424.444,342.461,282.228,112.408,408.622,364.811,117.642,514.278,60.501,55.608,340.594,20.642,330.275,536.578,571.811,330.261,389.861,454.144,522.811,365.461
2945.9,43.7,197.867,330.217,494.293,674.933,406.883,496.289,407.05,317.383,157.0,459.601,412.567,155.5,638.4,63.117,112.467,395.65,78.7,370.333,673.422,707.956,374.883,474.95,543.456,698.656,360.617
2955.2,32.758,176.825,400.872,546.323,789.844,489.406,658.833,452.139,386.106,142.492,650.465,500.511,164.258,776.511,59.986,103.458,548.639,36.558,454.025,844.567,950.767,478.106,688.606,754.333,737.2,445.472
2964.5,-0.6,150.767,543.861,620.777,1189.611,767.528,1042.267,701.594,523.861,182.4,1008.089,694.144,186.8,1047.111,78.27,108.533,851.061,-1.2,540.467,1342.767,1537.633,741.628,1100.961,1158.567,999.9,649.761
2973.8,27.583,243.25,862.883,731.655,1964.433,1435.017,1773.344,1140.983,783.917,266.217,2054.761,1035.7,214.35,1653.433,80.128,91.95,1767.317,-0.017,729.883,2511.811,3061.978,1269.05,2276.483,2135.478,1602.744,1035.817
2983.1,97.708,316.242,1307.65,891.745,2792.589,2423.517,2632.344,1712.783,1091.883,316.175,3793.399,1348.356,265.908,2281.289,105.717,178.775,3026.25,47.508,960.108,3951.544,5030.678,2007.583,3985.217,3274.178,2414.978,1554.35
2992.4,21.342,394.875,1326.378,1087.895,2676.889,2346.844,2466.8,1750.278,1208.478,373.208,4038.991,1510.656,352.542,2264.656,125.618,157.875,2980.144,51.408,1120.708,3485.2,4410.867,1962.444,3828.544,2888.067,2317.133,1647.444
3001.7,58.908,477.742,1234.228,1317.852,2257.956,1531.061,1871.633,1417.328,1274.761,425.308,2428.349,1574.489,453.408,2082.956,137.238,229.442,1782.294,22.442,1480.375,2271.3,2547.233,1467.961,2243.894,2016.3,1904.633,1306.161
3010.9,117.858,652.925,1425.7,1791.858,2563.456,1205.3,2048.356,1459.633,1668.333,666.092,1302.133,2170.989,579.225,2612.222,144.353,350.692,1273.967,89.258,2170.158,2037.622,1777.889,1485.333,1401.133,1920.622,2209.356,1376.533
3020.2,136.625,1065.325,2118.733,2714.63,3558.011,1431.667,2751.6,2127.733,2626.333,1030.425,961.562,3267.811,927.592,3815.978,257.969,499.958,1244.4,37.458,3425.225,2438.533,1711.267,1891.633,1247.733,2520.1,3017.4,1869.4
3029.4,249.333,1518.033,2608.45,3482.589,4236.422,1700.083,3268.411,2649.05,3198.283,1554.133,894.651,3930.456,1408.4,4576.322,342.043,827.133,1363.283,71.333,4395.333,2866.811,1737.811,2396.883,1282.317,2975.111,3809.644,2389.417
3038.6,275.408,1689.842,2508.2,3437.097,4180.322,1687.167,3227.611,2578.467,3079.533,1702.908,870.81,3701.722,1547.542,4406.656,354.288,935.842,1406.733,127.942,4347.542,2838.444,1911.311,2384.367,1379.667,2997.378,3819.078,2470.433
3047.8,228.525,1509.858,2230.25,2912.152,3634.967,1585.65,2897.178,2306.583,2603.75,1487.725,1078.596,3152.033,1376.425,3820.267,298.673,825.792,1446.683,103.225,3649.258,2657.811,1953.311,2103.517,1456.317,2706.311,3357.878,2203.85
3057.0,242.183,1357.083,2103.689,2623.738,3604.233,1711.222,2957.433,2254.589,2428.056,1357.883,1348.118,3075.2,1232.25,3730.433,271.115,713.383,1595.189,94.717,3312.217,2853.933,2326.2,2063.756,1739.822,2770.7,3454.967,2220.122
3066.1,266.6,1543.767,2597.544,3216.31,4793.878,2085.011,3806.322,2759.744,3091.444,1488.2,1638.03,4040.178,1374.633,4976.944,318.743,816.333,1930.311,108.367,4194.733,3597.689,2905.056,2604.644,2162.978,3549.456,4294.656,2636.744
3075.3,378.292,2242.525,3655.389,4581.644,6442.789,2833.289,5004.211,3850.956,4472.522,2273.025,2027.941,5407.689,2053.492,6666.922,455.989,1166.558,2499.856,126.092,6166.725,4688.678,3588.344,3572.356,2712.289,4739.478,5069.711,3306.222
3084.4,492.858,2683.958,3578.089,4631.871,5917.122,3098.389,4733.111,3818.022,4143.556,2616.192,2660.476,4852.089,2461.992,5960.156,457.919,1502.958,2991.189,215.425,5852.558,4886.544,4251.644,3623.589,3361.522,4706.878,5048.478,3395.389
3093.5,427.725,1925.892,2508.117,3092.527,4408.667,2728.25,3700.178,2884.583,2794.183,1914.358,3106.77,3191.5,1790.758,4172.7,316.626,1168.892,2965.783,183.558,3684.758,4255.278,4355.244,2807.283,3562.15,3871.611,4030.978,2798.15
3102.6,232.1,1186.733,1824.039,2099.267,3272.089,2121.239,2809.567,2127.139,1957.206,1250.0,2700.86,2382.256,1132.0,3105.356,215.39,751.3,2382.939,144.867,2444.8,3300.5,3506.867,2160.139,2860.939,3006.0,2980.0,2067.239
3111.7,217.758,1042.592,1683.15,2035.851,3072.778,1710.083,2654.944,1966.117,1967.983,1084.758,1898.603,2429.344,984.025,3088.778,222.753,601.392,1799.717,85.892,2502.925,2737.011,2560.244,1842.883,2068.083,2563.578,2798.111,1842.017
3120.8,239.1,1225.333,1776.894,2320.572,3136.689,1550.994,2535.589,2035.728,2199.661,1193.167,1402.052,2602.656,1124.667,3210.289,255.923,652.733,1491.861,74.233,2893.667,2512.056,2050.356,1849.861,1681.161,2450.722,3061.856,1985.461
3129.9,248.742,1213.408,1531.006,2030.931,2463.156,1312.206,2035.989,1695.772,1786.606,1230.142,1208.249,1952.989,1139.908,2496.189,208.164,762.442,1245.139,111.708,2384.108,2028.089,1713.256,1485.606,1459.472,1967.389,2551.022,1743.739
3138.9,185.125,882.892,945.133,1305.907,1610.344,937.7,1423.144,1118.033,1147.933,835.758,1045.643,1222.078,866.792,1605.644,164.433,539.258,973.633,92.558,1425.558,1511.744,1424.144,1030.333,1188.433,1380.944,1663.944,1179.4
3148.0,170.233,492.8,612.917,855.298,1137.6,706.917,973.244,747.983,690.883,498.4,901.293,819.1,498.933,1097.3,96.123,334.367,784.683,67.567,820.767,1108.978,1146.011,705.017,938.517,971.811,1126.711,767.317
3157.0,116.392,349.025,502.022,627.555,908.278,532.456,723.289,578.656,529.722,328.292,685.348,610.911,338.725,864.111,100.003,303.092,665.622,99.258,551.825,819.122,905.022,510.589,731.322,774.556,910.356,590.056
3166.0,94.892,183.858,380.711,526.277,735.611,405.844,618.956,446.044,370.078,239.392,548.649,494.111,223.758,697.278,73.516,135.258,444.244,49.425,391.258,792.656,819.289,425.944,573.478,663.022,774.022,416.611
3175.0,0.017,83.05,301.678,439.435,810.011,324.411,486.211,349.744,303.611,347.483,601.062,411.978,99.583,558.544,35.265,41.883,715.411,-23.45,220.083,610.678,462.311,319.311,790.144,553.578,349.644,623.344
3184.0,54.717,140.317,256.522,414.912,497.5,307.322,454.311,292.256,272.256,126.05,445.612,337.2,152.083,470.867,53.782,108.95,367.689,79.65,227.183,533.044,591.578,270.489,397.556,452.378,509.044,323.889
3193.0,79.725,107.492,246.95,368.072,452.9,250.617,390.889,288.917,256.45,104.258,434.92,294.533,106.525,414.833,27.439,100.325,291.65,47.725,131.425,476.722,549.256,249.783,414.483,406.189,467.122,301.917
3201.9,118.392,111.825,186.878,393.01,494.767,242.244,341.844,273.744,225.978,46.225,368.319,284.433,140.058,443.367,50.816,92.092,289.978,49.058,139.358,449.578,554.544,245.578,349.344,425.644,505.778,281.744
3210.9,109.217,85.417,184.539,348.227,450.044,218.406,328.7,233.072,175.272,44.117,368.966,267.078,109.05,386.978,37.228,32.05,276.139,79.217,69.583,440.633,510.5,209.239,335.872,378.333,438.067,240.472
3219.8,68.25,82.017,190.589,318.945,360.9,196.056,333.822,264.756,164.289,49.517,366.841,200.867,84.217,321.3,35.408,37.517,260.756,60.283,21.217,415.889,452.289,204.889,296.822,342.789,403.956,253.056
3228.7,84.708,49.108,172.756,327.107,423.489,216.022,267.444,209.522,130.122,61.375,330.303,252.589,110.608,358.989,45.681,41.442,249.189,102.042,22.442,368.111,433.244,170.256,303.289,296.878,372.011,204.256
3237.7,116.4,28.233,148.144,279.885,340.533,197.444,282.544,170.478,146.178,52.733,322.605,216.2,56.767,323.833,28.133,71.133,228.211,52.8,-26.3,349.911,447.644,169.411,268.911,268.111,394.211,221.211
3246.5,84.2,31.033,152.628,282.215,313.089,182.894,243.978,188.228,134.861,33.533,316.483,179.756,43.067,285.489,31.833,54.667,210.994,106.6,-59.733,318.278,363.644,167.061,288.894,275.411,377.744,212.361
